time_since_fade_in (s),phase_,amp (rad),freq (Hz),motor_idx,policy_output,command (rad),motor_position (rad),motor_velocity (rad/s)
0.000131443,0.000825881,0.5,1,0,0.00041294,0.00041294,0.0238567,-0.00553954
0.00414407,0.026038,0.5,1,0,0.0130175,0.0130175,0.0236166,-0.107624
0.00778832,0.0489355,0.5,1,0,0.024458,0.024458,0.0233772,-0.0122165
0.0117612,0.0738981,0.5,1,0,0.0369154,0.0369154,0.023892,0.219511
0.0161165,0.101263,0.5,1,0,0.0505448,0.0505448,0.0256146,0.510279
0.0201918,0.126869,0.5,1,0,0.0632645,0.0632645,0.0285891,0.813998
0.023736,0.149137,0.5,1,0,0.0742926,0.0742926,0.0312186,1.03087
0.0281434,0.17683,0.5,1,0,0.0879551,0.0879551,0.0374615,1.33483
0.0316762,0.199028,0.5,1,0,0.0988581,0.0988581,0.043185,1.54868
0.0356772,0.224166,0.5,1,0,0.111147,0.111147,0.0498284,1.72299
0.0396451,0.249098,0.5,1,0,0.123265,0.123265,0.0567672,1.88212
0.0436544,0.274289,0.5,1,0,0.135431,0.135431,0.0622658,2.01508
0.0482074,0.302896,0.5,1,0,0.149143,0.149143,0.0748385,2.17409
0.0521939,0.327944,0.5,1,0,0.161048,0.161048,0.0813296,2.27305
0.0558489,0.350909,0.5,1,0,0.171876,0.171876,0.0907802,2.39914
0.0597466,0.375399,0.5,1,0,0.183322,0.183322,0.100868,2.47288
0.0639483,0.401799,0.5,1,0,0.195537,0.195537,0.111457,2.52193
0.0681349,0.428104,0.5,1,0,0.207573,0.207573,0.121471,2.57087
0.0721044,0.453045,0.5,1,0,0.218853,0.218853,0.13377,2.60451
0.0758654,0.476676,0.5,1,0,0.229414,0.229414,0.142718,2.6283
0.0798905,0.501967,0.5,1,0,0.240575,0.240575,0.154149,2.64172
0.0836489,0.525581,0.5,1,0,0.250858,0.250858,0.164543,2.65055
0.0876371,0.55064,0.5,1,0,0.261616,0.261616,0.175217,2.64794
0.0916376,0.575776,0.5,1,0,0.272243,0.272243,0.182692,2.66925
0.0956557,0.601022,0.5,1,0,0.282743,0.282743,0.194058,2.69592
0.099801,0.627068,0.5,1,0,0.293387,0.293387,0.204922,2.69647
0.104,0.653448,0.5,1,0,0.303964,0.303964,0.216847,2.67921
0.108173,0.679671,0.5,1,0,0.314269,0.314269,0.230503,2.62289
0.111652,0.70153,0.5,1,0,0.322693,0.322693,0.237074,2.61932
0.116131,0.729673,0.5,1,0,0.333313,0.333313,0.251196,2.5575
0.120146,0.754897,0.5,1,0,0.342607,0.342607,0.25863,2.55039
0.124175,0.780216,0.5,1,0,0.351716,0.351716,0.269641,2.53461
0.127682,0.802252,0.5,1,0,0.359462,0.359462,0.279538,2.50929
0.132052,0.829709,0.5,1,0,0.368868,0.368868,0.291004,2.43971
0.135856,0.853611,0.5,1,0,0.376829,0.376829,0.300732,2.39547
0.140219,0.881021,0.5,1,0,0.385694,0.385694,0.310974,2.33702
0.144214,0.906126,0.5,1,0,0.39356,0.39356,0.320068,2.3001
0.148154,0.930881,0.5,1,0,0.401073,0.401073,0.326971,2.28489
0.152163,0.956068,0.5,1,0,0.408465,0.408465,0.336798,2.25209
0.156066,0.980589,0.5,1,0,0.415413,0.415413,0.345987,2.20356
0.160146,1.00623,0.5,1,0,0.422409,0.422409,0.355168,2.14265
0.164076,1.03092,0.5,1,0,0.428887,0.428887,0.364088,2.08034
0.168557,1.05907,0.5,1,0,0.435951,0.435951,0.372934,2.01035
0.171727,1.07899,0.5,1,0,0.440741,0.440741,0.378746,1.98609
0.176186,1.10701,0.5,1,0,0.447182,0.447182,0.387008,1.92566
0.180168,1.13203,0.5,1,0,0.452638,0.452638,0.395397,1.86369
0.184534,1.15946,0.5,1,0,0.458294,0.458294,0.403478,1.78928
0.18767,1.17916,0.5,1,0,0.462143,0.462143,0.408457,1.75808
0.192564,1.20991,0.5,1,0,0.467793,0.467793,0.418403,1.64227
0.196203,1.23278,0.5,1,0,0.471707,0.471707,0.423122,1.60447
0.200196,1.25787,0.5,1,0,0.475718,0.475718,0.429919,1.54009
0.203796,1.28049,0.5,1,0,0.479078,0.479078,0.435974,1.47527
0.208207,1.3082,0.5,1,0,0.48286,0.48286,0.441754,1.40421
0.2122,1.33329,0.5,1,0,0.485964,0.485964,0.447132,1.34328
0.215841,1.35617,0.5,1,0,0.488528,0.488528,0.452648,1.27334
0.220041,1.38256,0.5,1,0,0.491168,0.491168,0.457851,1.19621
0.224254,1.40903,0.5,1,0,0.493472,0.493472,0.462735,1.12212
0.228171,1.43364,0.5,1,0,0.495304,0.495304,0.465712,1.08048
0.231754,1.45616,0.5,1,0,0.496718,0.496718,0.470222,1.01066
0.2362,1.48409,0.5,1,0,0.498122,0.498122,0.474499,0.929394
0.240143,1.50886,0.5,1,0,0.499041,0.499041,0.478334,0.851297
0.244154,1.53406,0.5,1,0,0.499663,0.499663,0.480807,0.79763
0.247662,1.5561,0.5,1,0,0.499946,0.499946,0.483999,0.721534
0.252159,1.58436,0.5,1,0,0.499954,0.499954,0.486669,0.648832
0.256311,1.61045,0.5,1,0,0.499607,0.499607,0.489839,0.550189
0.25988,1.63287,0.5,1,0,0.499037,0.499037,0.491101,0.504512
0.263735,1.6571,0.5,1,0,0.498139,0.498139,0.493042,0.42448
0.268148,1.68482,0.5,1,0,0.496753,0.496753,0.494578,0.349063
0.27214,1.70991,0.5,1,0,0.49517,0.49517,0.496015,0.258878
0.276203,1.73544,0.5,1,0,0.493239,0.493239,0.496888,0.185174
0.279997,1.75927,0.5,1,0,0.491146,0.491146,0.497478,0.123634
0.283885,1.7837,0.5,1,0,0.488711,0.488711,0.497897,0.0759577
0.288225,1.81097,0.5,1,0,0.485648,0.485648,0.498072,0.0157944
0.29189,1.834,0.5,1,0,0.482781,0.482781,0.498022,-0.0428616
0.295854,1.8589,0.5,1,0,0.479392,0.479392,0.497681,-0.123322
0.299702,1.88308,0.5,1,0,0.475817,0.475817,0.497005,-0.204933
0.304191,1.91129,0.5,1,0,0.471295,0.471295,0.495873,-0.291321
0.307643,1.93298,0.5,1,0,0.467563,0.467563,0.494578,-0.373953
0.311822,1.95923,0.5,1,0,0.462751,0.462751,0.492851,-0.450059
0.31588,1.98473,0.5,1,0,0.457773,0.457773,0.490855,-0.529
0.320193,2.01183,0.5,1,0,0.452155,0.452155,0.488479,-0.609101
0.323745,2.03415,0.5,1,0,0.44728,0.44728,0.485833,-0.692039
0.327852,2.05996,0.5,1,0,0.441364,0.441364,0.483187,-0.759523
0.331764,2.08454,0.5,1,0,0.435457,0.435457,0.479192,-0.841789
0.335807,2.10994,0.5,1,0,0.429075,0.429075,0.475565,-0.904601
0.339912,2.13573,0.5,1,0,0.422313,0.422313,0.471665,-0.972938
0.344133,2.16225,0.5,1,0,0.415066,0.415066,0.467682,-1.04479
0.34854,2.18994,0.5,1,0,0.407188,0.407188,0.463399,-1.12458
0.351798,2.21041,0.5,1,0,0.401162,0.401162,0.459994,-1.20479
0.355651,2.23462,0.5,1,0,0.39382,0.39382,0.45492,-1.26792
0.359648,2.25974,0.5,1,0,0.38596,0.38596,0.449221,-1.34782
0.363647,2.28486,0.5,1,0,0.377852,0.377852,0.443071,-1.41296
0.367786,2.31087,0.5,1,0,0.36921,0.36921,0.436948,-1.47022
0.372099,2.33797,0.5,1,0,0.359939,0.359939,0.431186,-1.53357
0.375686,2.3605,0.5,1,0,0.352026,0.352026,0.425631,-1.61215
0.379663,2.38549,0.5,1,0,0.343044,0.343044,0.418807,-1.6804
0.383693,2.41082,0.5,1,0,0.333724,0.333724,0.412417,-1.74341
0.388069,2.43831,0.5,1,0,0.323363,0.323363,0.403246,-1.80065
0.392204,2.46429,0.5,1,0,0.313346,0.313346,0.39661,-1.85603
0.395641,2.48588,0.5,1,0,0.304861,0.304861,0.389354,-1.92778
0.399685,2.5113,0.5,1,0,0.294693,0.294693,0.382069,-1.97798
0.40363,2.53608,0.5,1,0,0.284591,0.284591,0.374163,-2.0396
0.407687,2.56157,0.5,1,0,0.274022,0.274022,0.365602,-2.09583
0.411704,2.58682,0.5,1,0,0.263377,0.263377,0.357247,-2.15098
0.415678,2.61178,0.5,1,0,0.252686,0.252686,0.348231,-2.20529
0.419752,2.63738,0.5,1,0,0.24156,0.24156,0.339008,-2.25206
0.424032,2.66427,0.5,1,0,0.229701,0.229701,0.327531,-2.28166
0.42826,2.69083,0.5,1,0,0.217824,0.217824,0.318025,-2.31472
0.43261,2.71817,0.5,1,0,0.205441,0.205441,0.307404,-2.35566
0.435738,2.73782,0.5,1,0,0.196444,0.196444,0.301173,-2.41552
0.439694,2.76268,0.5,1,0,0.184955,0.184955,0.290814,-2.46937
0.443899,2.7891,0.5,1,0,0.172619,0.172619,0.281774,-2.51684
0.447842,2.81387,0.5,1,0,0.160942,0.160942,0.271747,-2.58038
0.451754,2.83846,0.5,1,0,0.149258,0.149258,0.261499,-2.63114
0.455715,2.86334,0.5,1,0,0.137336,0.137336,0.248411,-2.64966
0.459683,2.88827,0.5,1,0,0.12531,0.12531,0.238512,-2.66554
0.463686,2.91343,0.5,1,0,0.113095,0.113095,0.227433,-2.69301
0.46775,2.93896,0.5,1,0,0.100624,0.100624,0.218152,-2.73257
0.471773,2.96424,0.5,1,0,0.0882125,0.0882125,0.207578,-2.78815
0.476122,2.99156,0.5,1,0,0.0747328,0.0747328,0.194279,-2.81539
0.479643,3.01368,0.5,1,0,0.0637804,0.0637804,0.182579,-2.84389
0.483765,3.03958,0.5,1,0,0.0509157,0.0509157,0.17055,-2.83922
0.487697,3.06429,0.5,1,0,0.0386135,0.0386135,0.159649,-2.85739
0.491712,3.08952,0.5,1,0,0.026027,0.026027,0.147511,-2.87394
0.496153,3.11742,0.5,1,0,0.012086,0.012086,0.136472,-2.89508
0.499872,3.14079,0.5,1,0,0.000401653,0.000401653,0.12382,-2.93378
0.503717,3.16494,0.5,1,0,-0.011675,-0.011675,0.112867,-2.94811
0.507654,3.18968,0.5,1,0,-0.0240351,-0.0240351,0.100662,-2.95845
0.511716,3.21521,0.5,1,0,-0.0367744,-0.0367744,0.0890222,-2.96807
0.515646,3.2399,0.5,1,0,-0.0490739,-0.0490739,0.0776242,-2.98855
0.51964,3.265,0.5,1,0,-0.0615452,-0.0615452,0.0661486,-3.0087
0.523804,3.29116,0.5,1,0,-0.0745036,-0.0745036,0.0542905,-3.02761
0.528054,3.31786,0.5,1,0,-0.087677,-0.087677,0.0390148,-3.01574
0.531729,3.34095,0.5,1,0,-0.0990197,-0.0990197,0.0280875,-3.01877
0.535689,3.36584,0.5,1,0,-0.111184,-0.111184,0.0156373,-3.00961
0.539643,3.39068,0.5,1,0,-0.123258,-0.123258,0.0071483,-3.0298
0.543639,3.41578,0.5,1,0,-0.135384,-0.135384,-0.00605271,-3.05484
0.547748,3.4416,0.5,1,0,-0.147765,-0.147765,-0.0180562,-3.05789
0.551864,3.46746,0.5,1,0,-0.160067,-0.160067,-0.031602,-3.04705
0.556132,3.49428,0.5,1,0,-0.172712,-0.172712,-0.044151,-3.03034
0.559713,3.51678,0.5,1,0,-0.183224,-0.183224,-0.0563488,-3.02511
0.563644,3.54148,0.5,1,0,-0.194658,-0.194658,-0.0693647,-2.98452
0.568112,3.56955,0.5,1,0,-0.207507,-0.207507,-0.0824891,-2.93651
0.572023,3.59413,0.5,1,0,-0.218623,-0.218623,-0.0937047,-2.92887
0.575878,3.61835,0.5,1,0,-0.229449,-0.229449,-0.104308,-2.92723
0.579828,3.64317,0.5,1,0,-0.240404,-0.240404,-0.115201,-2.92508
0.583795,3.66809,0.5,1,0,-0.251256,-0.251256,-0.126963,-2.91454
0.587774,3.69309,0.5,1,0,-0.261982,-0.261982,-0.139237,-2.88771
0.591801,3.7184,0.5,1,0,-0.272674,-0.272674,-0.150515,-2.86019
0.595766,3.74331,0.5,1,0,-0.283028,-0.283028,-0.161978,-2.83398
0.599763,3.76842,0.5,1,0,-0.29329,-0.29329,-0.173327,-2.80375
0.603863,3.79418,0.5,1,0,-0.303624,-0.303624,-0.183996,-2.77835
0.60775,3.81861,0.5,1,0,-0.313235,-0.313235,-0.194858,-2.75704
0.612211,3.84663,0.5,1,0,-0.324033,-0.324033,-0.208326,-2.69195
0.615876,3.86966,0.5,1,0,-0.332715,-0.332715,-0.218817,-2.65613
0.619808,3.89437,0.5,1,0,-0.341834,-0.341834,-0.229669,-2.60486
0.624212,3.92204,0.5,1,0,-0.351799,-0.351799,-0.239799,-2.561
0.628213,3.94718,0.5,1,0,-0.360619,-0.360619,-0.250309,-2.53125
0.632175,3.97207,0.5,1,0,-0.369127,-0.369127,-0.260671,-2.49095
0.635711,3.99429,0.5,1,0,-0.376529,-0.376529,-0.27036,-2.44988
0.640175,4.02234,0.5,1,0,-0.385608,-0.385608,-0.27986,-2.39609
0.644038,4.04661,0.5,1,0,-0.393219,-0.393219,-0.289433,-2.36125
0.647959,4.07125,0.5,1,0,-0.400707,-0.400707,-0.299071,-2.31192
0.651768,4.09518,0.5,1,0,-0.407749,-0.407749,-0.307586,-2.26838
0.655692,4.11983,0.5,1,0,-0.414758,-0.414758,-0.31594,-2.2256
0.65974,4.14527,0.5,1,0,-0.421726,-0.421726,-0.323921,-2.18774
0.663729,4.17033,0.5,1,0,-0.428325,-0.428325,-0.334725,-2.10818
0.66776,4.19566,0.5,1,0,-0.43472,-0.43472,-0.342044,-2.05828
0.671731,4.22061,0.5,1,0,-0.440747,-0.440747,-0.350218,-2.00662
0.675726,4.24571,0.5,1,0,-0.446534,-0.446534,-0.358367,-1.94755
0.680076,4.27304,0.5,1,0,-0.452515,-0.452515,-0.36664,-1.87897
0.683828,4.29662,0.5,1,0,-0.457402,-0.457402,-0.374442,-1.81626
0.688122,4.3236,0.5,1,0,-0.462684,-0.462684,-0.381604,-1.74925
0.69168,4.34595,0.5,1,0,-0.466805,-0.466805,-0.386643,-1.71646
0.695702,4.37122,0.5,1,0,-0.471183,-0.471183,-0.393928,-1.65357
0.699679,4.39621,0.5,1,0,-0.475216,-0.475216,-0.400441,-1.58895
0.703687,4.42139,0.5,1,0,-0.478979,-0.478979,-0.406231,-1.52991
0.707798,4.44723,0.5,1,0,-0.482525,-0.482525,-0.412391,-1.46241
0.711649,4.47143,0.5,1,0,-0.485554,-0.485554,-0.419233,-1.37421
0.716369,4.50108,0.5,1,0,-0.488879,-0.488879,-0.424593,-1.2978
0.719816,4.52274,0.5,1,0,-0.491035,-0.491035,-0.429917,-1.22799
0.723733,4.54735,0.5,1,0,-0.493206,-0.493206,-0.434113,-1.16509
0.728194,4.57538,0.5,1,0,-0.495314,-0.495314,-0.438425,-1.09906
0.732154,4.60026,0.5,1,0,-0.49686,-0.49686,-0.443717,-1.00954
0.735893,4.62375,0.5,1,0,-0.498037,-0.498037,-0.446476,-0.960206
0.740065,4.64997,0.5,1,0,-0.499026,-0.499026,-0.450268,-0.886964
0.744168,4.67574,0.5,1,0,-0.499664,-0.499664,-0.453835,-0.809885
0.748071,4.70027,0.5,1,0,-0.499963,-0.499963,-0.457145,-0.72936
0.751653,4.72278,0.5,1,0,-0.499973,-0.499973,-0.459974,-0.651991
0.755696,4.74818,0.5,1,0,-0.49968,-0.49968,-0.462484,-0.574995
0.759722,4.77347,0.5,1,0,-0.499068,-0.499068,-0.464628,-0.500179
0.763604,4.79786,0.5,1,0,-0.498175,-0.498175,-0.465859,-0.449687
0.767843,4.8245,0.5,1,0,-0.496861,-0.496861,-0.468027,-0.346821
0.771667,4.84852,0.5,1,0,-0.495374,-0.495374,-0.468915,-0.291787
0.775678,4.87373,0.5,1,0,-0.493506,-0.493506,-0.469927,-0.210589
0.779611,4.89844,0.5,1,0,-0.491371,-0.491371,-0.470669,-0.134237
0.783722,4.92427,0.5,1,0,-0.488819,-0.488819,-0.471109,-0.085385
0.787654,4.94898,0.5,1,0,-0.486072,-0.486072,-0.471321,-0.0284212
0.791671,4.97421,0.5,1,0,-0.48296,-0.48296,-0.471278,0.0402493
0.79574,4.99978,0.5,1,0,-0.479493,-0.479493,-0.470863,0.124821
0.799689,5.0246,0.5,1,0,-0.475829,-0.475829,-0.470202,0.200411
0.803648,5.04947,0.5,1,0,-0.471862,-0.471862,-0.469238,0.279167
0.807805,5.07559,0.5,1,0,-0.467382,-0.467382,-0.468033,0.357094
0.811873,5.10115,0.5,1,0,-0.46269,-0.46269,-0.466348,0.44522
0.815642,5.12483,0.5,1,0,-0.458072,-0.458072,-0.464414,0.52758
0.819638,5.14994,0.5,1,0,-0.452896,-0.452896,-0.462109,0.605405
0.824176,5.17845,0.5,1,0,-0.446673,-0.446673,-0.45949,0.683044
0.827659,5.20033,0.5,1,0,-0.441649,-0.441649,-0.456533,0.771551
0.831643,5.22537,0.5,1,0,-0.435644,-0.435644,-0.453598,0.839842
0.835649,5.25054,0.5,1,0,-0.42933,-0.42933,-0.450216,0.917126
0.839642,5.27563,0.5,1,0,-0.422765,-0.422765,-0.446537,0.995439
0.843662,5.30088,0.5,1,0,-0.415888,-0.415888,-0.441162,1.07409
0.847649,5.32593,0.5,1,0,-0.408806,-0.408806,-0.436928,1.13166
0.851673,5.35122,0.5,1,0,-0.401396,-0.401396,-0.432331,1.19956
0.855652,5.37622,0.5,1,0,-0.39382,-0.39382,-0.427076,1.27155
0.859798,5.40227,0.5,1,0,-0.38566,-0.38566,-0.422067,1.33834
0.864137,5.42954,0.5,1,0,-0.376842,-0.376842,-0.416356,1.41465
0.868169,5.45487,0.5,1,0,-0.368398,-0.368398,-0.41062,1.49489
0.871657,5.47678,0.5,1,0,-0.360901,-0.360901,-0.404422,1.57074
0.876115,5.50479,0.5,1,0,-0.351068,-0.351068,-0.398621,1.62553
0.880598,5.53296,0.5,1,0,-0.340901,-0.340901,-0.388909,1.68255
0.884218,5.55571,0.5,1,0,-0.332494,-0.332494,-0.38461,1.73979
0.887609,5.57701,0.5,1,0,-0.324463,-0.324463,-0.378177,1.81706
0.891732,5.60292,0.5,1,0,-0.314501,-0.314501,-0.370325,1.88209
0.895744,5.62813,0.5,1,0,-0.304603,-0.304603,-0.362212,1.94168
0.899778,5.65347,0.5,1,0,-0.294457,-0.294457,-0.354263,1.99602
0.903897,5.67935,0.5,1,0,-0.283902,-0.283902,-0.34609,2.05236
0.907739,5.70349,0.5,1,0,-0.273884,-0.273884,-0.337471,2.11124
0.91213,5.73108,0.5,1,0,-0.262241,-0.262241,-0.328855,2.15856
0.916216,5.75676,0.5,1,0,-0.251224,-0.251224,-0.320007,2.22405
0.920138,5.7814,0.5,1,0,-0.240496,-0.240496,-0.310677,2.28347
0.92374,5.80403,0.5,1,0,-0.230516,-0.230516,-0.301134,2.32956
0.927718,5.82903,0.5,1,0,-0.219354,-0.219354,-0.291449,2.35516
0.931787,5.85459,0.5,1,0,-0.207795,-0.207795,-0.281165,2.38379
0.935705,5.87921,0.5,1,0,-0.19654,-0.19654,-0.274389,2.43273
0.939711,5.90438,0.5,1,0,-0.184907,-0.184907,-0.26418,2.50399
0.943704,5.92947,0.5,1,0,-0.173193,-0.173193,-0.253706,2.55802
0.948258,5.95808,0.5,1,0,-0.159705,-0.159705,-0.239683,2.56632
0.951648,5.97938,0.5,1,0,-0.149577,-0.149577,-0.232401,2.61087
0.955885,6.006,0.5,1,0,-0.136824,-0.136824,-0.221777,2.65609
0.96017,6.03292,0.5,1,0,-0.123829,-0.123829,-0.211229,2.70827
0.963655,6.05482,0.5,1,0,-0.113191,-0.113191,-0.19991,2.76316
0.967744,6.08051,0.5,1,0,-0.100644,-0.100644,-0.188188,2.77242
0.971733,6.10558,0.5,1,0,-0.0883382,-0.0883382,-0.177251,2.79455
0.975697,6.13049,0.5,1,0,-0.0760526,-0.0760526,-0.165367,2.81611
0.979747,6.15593,0.5,1,0,-0.0634552,-0.0634552,-0.155397,2.84528
0.983688,6.18069,0.5,1,0,-0.0511573,-0.0511573,-0.141255,2.86182
0.987646,6.20556,0.5,1,0,-0.0387713,-0.0387713,-0.133173,2.88749
0.991643,6.23068,0.5,1,0,-0.0262414,-0.0262414,-0.12113,2.9351
0.995902,6.25744,0.5,1,0,-0.0128722,-0.0128722,-0.105996,2.93083
0.999945,6.28284,0.5,1,0,-0.000172332,-0.000172332,-0.0935976,2.92687
1.00378,12.6139,0.5,2,0,0.0237367,0.0237367,-0.0850293,2.95605
1.00787,12.6653,0.5,2,0,0.0493722,0.0493722,-0.0722927,3.17487
1.01195,12.7166,0.5,2,0,0.0748251,0.0748251,-0.0598705,3.45656
1.01565,12.7631,0.5,2,0,0.0977176,0.0977176,-0.0437979,3.76835
1.01964,12.8132,0.5,2,0,0.12218,0.12218,-0.0280347,4.01839
1.0237,12.8642,0.5,2,0,0.146727,0.146727,-0.00873552,4.25328
1.02774,12.915,0.5,2,0,0.170805,0.170805,0.00660952,4.44049
1.03163,12.9639,0.5,2,0,0.193568,0.193568,0.0240552,4.65037
1.03568,13.0147,0.5,2,0,0.216737,0.216737,0.0460693,4.80396
1.03973,13.0656,0.5,2,0,0.239372,0.239372,0.0627045,4.91499
1.04384,13.1173,0.5,2,0,0.261756,0.261756,0.083293,5.0334
1.04765,13.1651,0.5,2,0,0.281803,0.281803,0.105286,5.09986
1.0518,13.2173,0.5,2,0,0.302969,0.302969,0.126363,5.10257
1.05582,13.2679,0.5,2,0,0.322678,0.322678,0.148458,5.08989
1.05965,13.3159,0.5,2,0,0.340664,0.340664,0.162793,5.11036
1.06364,13.3661,0.5,2,0,0.358576,0.358576,0.185447,5.09851
1.06792,13.4199,0.5,2,0,0.376806,0.376806,0.210851,4.97063
1.07172,13.4676,0.5,2,0,0.392039,0.392039,0.225746,4.92403
1.07566,13.5171,0.5,2,0,0.406926,0.406926,0.244439,4.85913
1.07971,13.568,0.5,2,0,0.421168,0.421168,0.262352,4.77508
1.08374,13.6187,0.5,2,0,0.434297,0.434297,0.286355,4.57526
1.08776,13.6692,0.5,2,0,0.446243,0.446243,0.304388,4.4014
1.09178,13.7197,0.5,2,0,0.457069,0.457069,0.320451,4.24858
1.09567,13.7686,0.5,2,0,0.466417,0.466417,0.336764,4.08368
1.09993,13.8221,0.5,2,0,0.475391,0.475391,0.352391,3.90139
1.10369,13.8693,0.5,2,0,0.482171,0.482171,0.367666,3.70912
1.10782,13.9212,0.5,2,0,0.488388,0.488388,0.38176,3.49888
1.11201,13.974,0.5,2,0,0.493358,0.493358,0.398898,3.1966
1.11567,14.0199,0.5,2,0,0.496568,0.496568,0.40793,3.02897
1.11965,14.0699,0.5,2,0,0.49887,0.49887,0.42124,2.74824
1.12364,14.1201,0.5,2,0,0.499927,0.499927,0.430473,2.5289
1.12782,14.1726,0.5,2,0,0.499687,0.499687,0.441864,2.21965
1.13164,14.2206,0.5,2,0,0.49826,0.49826,0.449807,1.96949
1.13565,14.271,0.5,2,0,0.49553,0.49553,0.456954,1.70853
1.13977,14.3228,0.5,2,0,0.491412,0.491412,0.463492,1.42371
1.14391,14.3748,0.5,2,0,0.485951,0.485951,0.468815,1.13541
1.14816,14.4282,0.5,2,0,0.478972,0.478972,0.472911,0.84397
1.15237,14.4812,0.5,2,0,0.470707,0.470707,0.475768,0.548741
1.15575,14.5235,0.5,2,0,0.463145,0.463145,0.476973,0.363804
1.15975,14.5739,0.5,2,0,0.453076,0.453076,0.477807,0.0745118
1.16383,14.6251,0.5,2,0,0.441656,0.441656,0.477451,-0.208819
1.1677,14.6738,0.5,2,0,0.429727,0.429727,0.476033,-0.491842
1.17183,14.7257,0.5,2,0,0.41589,0.41589,0.473374,-0.784526
1.17578,14.7753,0.5,2,0,0.401619,0.401619,0.469524,-1.08199
1.17982,14.826,0.5,2,0,0.385984,0.385984,0.464497,-1.36993
1.18379,14.8759,0.5,2,0,0.369656,0.369656,0.458481,-1.65276
1.18767,14.9247,0.5,2,0,0.352814,0.352814,0.450973,-1.93811
1.19161,14.9742,0.5,2,0,0.334851,0.334851,0.442115,-2.20486
1.19571,15.0257,0.5,2,0,0.315261,0.315261,0.432409,-2.4555
1.19973,15.0763,0.5,2,0,0.295261,0.295261,0.421923,-2.71112
1.20371,15.1263,0.5,2,0,0.27472,0.27472,0.410115,-2.96628
1.20766,15.1759,0.5,2,0,0.253666,0.253666,0.396965,-3.20807
1.21168,15.2264,0.5,2,0,0.2316,0.2316,0.383869,-3.42886
1.21599,15.2806,0.5,2,0,0.207233,0.207233,0.369154,-3.65911
1.21979,15.3283,0.5,2,0,0.185296,0.185296,0.354237,-3.90189
1.22414,15.383,0.5,2,0,0.159635,0.159635,0.338852,-4.11226
1.22821,15.4341,0.5,2,0,0.135234,0.135234,0.317801,-4.34565
1.23223,15.4846,0.5,2,0,0.110736,0.110736,0.301274,-4.50889
1.23626,15.5352,0.5,2,0,0.0859289,0.0859289,0.281273,-4.68757
1.24016,15.5843,0.5,2,0,0.0616605,0.0616605,0.267849,-4.84733
1.24381,15.6301,0.5,2,0,0.0388813,0.0388813,0.247802,-5.06984
1.24773,15.6794,0.5,2,0,0.0142831,0.0142831,0.228623,-5.21211
1.25213,15.7347,0.5,2,0,-0.0133861,-0.0133861,0.20252,-5.30903
1.25616,15.7854,0.5,2,0,-0.0386615,-0.0386615,0.178744,-5.38997
1.25989,15.8323,0.5,2,0,-0.0619976,-0.0619976,0.157958,-5.46689
1.26364,15.8794,0.5,2,0,-0.0852848,-0.0852848,0.141891,-5.55993
1.26813,15.9358,0.5,2,0,-0.112933,-0.112933,0.111336,-5.59963
1.272,15.9844,0.5,2,0,-0.136464,-0.136464,0.0949052,-5.67853
1.27582,16.0324,0.5,2,0,-0.159408,-0.159408,0.0717943,-5.77784
1.28018,16.0872,0.5,2,0,-0.185092,-0.185092,0.0484292,-5.8144
